   Time             Pg                Vg                Vr                Qg              
 1.000000000E-005  0.000000000E+000  7.902685200E+001  1.172918317E+000  0.000000000E+000 
 2.000000000E-005  1.640167263E-012  8.026732656E+001  2.345819965E+000  0.000000000E+000 
 3.000000000E-005  1.480869987E-011  8.150666035E+001  3.518688273E+000  0.000000000E+000 
 4.000000000E-005  6.935913606E-011  8.274483575E+001  4.691506573E+000  0.000000000E+000 
 5.000000000E-005  2.287986606E-010  8.398183516E+001  5.864258197E+000  0.000000000E+000 
 6.000000000E-005  6.043541490E-010  8.521764100E+001  7.036926476E+000  0.000000000E+000 
 7.000000000E-005  1.369414736E-009  8.645223572E+001  8.209494745E+000  0.000000000E+000 
 8.000000000E-005  2.774349316E-009  8.768560175E+001  9.381946338E+000  0.000000000E+000 
 9.000000000E-005  5.161697351E-009  8.891772158E+001  1.055426459E+001  0.000000000E+000 
 1.000000000E-004  8.981731368E-009  9.014857769E+001  1.172643285E+001  0.000000000E+000 
 1.100000000E-004  1.480838947E-008  9.137815259E+001  1.289843445E+001  0.000000000E+000 
 1.200000000E-004  2.335557618E-008  9.260642880E+001  1.407025273E+001  0.000000000E+000 
 1.300000000E-004  3.549382996E-008  9.383338887E+001  1.524187104E+001  0.000000000E+000 
 1.400000000E-004  5.226735559E-008  9.505901537E+001  1.641327273E+001  0.000000000E+000 
 1.500000000E-004  7.491141978E-008  9.628329086E+001  1.758444116E+001  0.000000000E+000 
 1.600000000E-004  1.048701082E-007  9.750619795E+001  1.875535967E+001  0.000000000E+000 
 1.700000000E-004  1.438144419E-007  9.872771927E+001  1.992601162E+001  0.000000000E+000 
 1.800000000E-004  1.936608523E-007  9.994783744E+001  2.109638038E+001  0.000000000E+000 
 1.900000000E-004  2.565900109E-007  1.011665351E+002  2.226644932E+001  0.000000000E+000 
 2.000000000E-004  3.350660145E-007  1.023837950E+002  2.343620180E+001  0.000000000E+000 
 2.100000000E-004  4.318559221E-007  1.035995998E+002  2.460562120E+001  0.000000000E+000 
 2.200000000E-004  5.500496416E-007  1.048139322E+002  2.577469090E+001  0.000000000E+000 
 2.300000000E-004  6.930801663E-007  1.060267750E+002  2.694339428E+001  0.000000000E+000 
 2.400000000E-004  8.647441571E-007  1.072381109E+002  2.811171474E+001  0.000000000E+000 
 2.500000000E-004  1.069222869E-006  1.084479227E+002  2.927963567E+001  0.000000000E+000 
 2.600000000E-004  1.311103422E-006  1.096561933E+002  3.044714047E+001  0.000000000E+000 
 2.700000000E-004  1.595400410E-006  1.108629053E+002  3.161421254E+001  0.000000000E+000 
 2.800000000E-004  1.927577851E-006  1.120680418E+002  3.278083532E+001  0.000000000E+000 
 2.900000000E-004  2.313571471E-006  1.132715855E+002  3.394699220E+001  0.000000000E+000 
 3.000000000E-004  2.759811328E-006  1.144735194E+002  3.511266662E+001  0.000000000E+000 
 3.100000000E-004  3.273244761E-006  1.156738264E+002  3.627784201E+001  0.000000000E+000 
 3.200000000E-004  3.861359673E-006  1.168724893E+002  3.744250182E+001  0.000000000E+000 
 3.300000000E-004  4.532208148E-006  1.180694913E+002  3.860662948E+001  0.000000000E+000 
 3.400000000E-004  5.294430382E-006  1.192648152E+002  3.977020846E+001  0.000000000E+000 
 3.500000000E-004  6.157278950E-006  1.204584442E+002  4.093322221E+001  0.000000000E+000 
 3.600000000E-004  7.130643388E-006  1.216503611E+002  4.209565421E+001  0.000000000E+000 
 3.700000000E-004  8.225075097E-006  1.228405491E+002  4.325748794E+001  0.000000000E+000 
 3.800000000E-004  9.451812563E-006  1.240289913E+002  4.441870689E+001  0.000000000E+000 
 3.900000000E-004  1.082280690E-005  1.252156708E+002  4.557929455E+001  0.000000000E+000 
 4.000000000E-004  1.235074768E-005  1.264005706E+002  4.673923442E+001  0.000000000E+000 
 4.100000000E-004  1.404908913E-005  1.275836741E+002  4.789851003E+001  0.000000000E+000 
 4.200000000E-004  1.593207656E-005  1.287649642E+002  4.905710489E+001  0.000000000E+000 
 4.300000000E-004  1.801477317E-005  1.299444244E+002  5.021500254E+001  0.000000000E+000 
 4.400000000E-004  2.031308712E-005  1.311220378E+002  5.137218653E+001  0.000000000E+000 
 4.500000000E-004  2.284379889E-005  1.322977876E+002  5.252864040E+001  0.000000000E+000 
 4.600000000E-004  2.562458901E-005  1.334716571E+002  5.368434773E+001  0.000000000E+000 
 4.700000000E-004  2.867406597E-005  1.346436298E+002  5.483929208E+001  0.000000000E+000 
 4.800000000E-004  3.201179457E-005  1.358136889E+002  5.599345705E+001  0.000000000E+000 
 4.900000000E-004  3.565832443E-005  1.369818177E+002  5.714682622E+001  0.000000000E+000 
 5.000000000E-004  3.963521883E-005  1.381479997E+002  5.829938321E+001  0.000000000E+000 
 5.100000000E-004  4.396508393E-005  1.393122184E+002  5.945111164E+001  0.000000000E+000 
 5.200000000E-004  4.867159812E-005  1.404744571E+002  6.060199514E+001  0.000000000E+000 
 5.300000000E-004  5.377954176E-005  1.416346993E+002  6.175201734E+001  6.727535287E-003 
 5.400000000E-004  5.931482716E-005  1.427929287E+002  6.290116192E+001  6.727535287E-003 
 5.500000000E-004  6.530452889E-005  1.439491286E+002  6.404941253E+001  6.727535287E-003 
 5.600000000E-004  7.177691424E-005  1.451032826E+002  6.519675285E+001  6.727535287E-003 
 5.700000000E-004  7.876147410E-005  1.462553745E+002  6.634316659E+001  6.727535287E-003 
 5.800000000E-004  8.628895405E-005  1.474053877E+002  6.748863744E+001  6.727535287E-003 
 5.900000000E-004  9.439138565E-005  1.485533060E+002  6.863314913E+001  6.727535287E-003 
 6.000000000E-004  1.031021181E-004  1.496991130E+002  6.977668539E+001  6.727535287E-003 
 6.100000000E-004  1.124558502E-004  1.508427924E+002  7.091922997E+001  6.727535287E-003 
 6.200000000E-004  1.224886622E-004  1.519843280E+002  7.206076663E+001  6.727535287E-003 
 6.300000000E-004  1.332380487E-004  1.531237036E+002  7.320127915E+001  6.727535287E-003 
 6.400000000E-004  1.447429507E-004  1.542609030E+002  7.434075131E+001  6.727535287E-003 
 6.500000000E-004  1.570437889E-004  1.553959100E+002  7.547916693E+001  6.727535287E-003 
 6.600000000E-004  1.701824970E-004  1.565287084E+002  7.661650982E+001  6.727535287E-003 
 6.700000000E-004  1.842025544E-004  1.576592823E+002  7.775276382E+001  6.727535287E-003 
 6.800000000E-004  1.991490208E-004  1.587876154E+002  7.888791279E+001  6.727535287E-003 
 6.900000000E-004  2.150685691E-004  1.599136919E+002  8.002194058E+001  6.727535287E-003 
 7.000000000E-004  2.320095203E-004  1.610374956E+002  8.115483108E+001  6.727535287E-003 
 7.100000000E-004  2.500218776E-004  1.621590106E+002  8.228656819E+001  6.727535287E-003 
 7.200000000E-004  2.691573606E-004  1.632782209E+002  8.341713583E+001  6.727535287E-003 
 7.300000000E-004  2.894694409E-004  1.643951108E+002  8.454651793E+001  6.727535287E-003 
 7.400000000E-004  3.110133764E-004  1.655096642E+002  8.567469843E+001  6.727535287E-003 
 7.500000000E-004  3.338462471E-004  1.666218653E+002  8.680166131E+001  6.727535287E-003 
 7.600000000E-004  3.580269902E-004  1.677316984E+002  8.792739054E+001  6.727535287E-003 
 7.700000000E-004  3.836164361E-004  1.688391476E+002  8.905187013E+001  6.727535287E-003 
 7.800000000E-004  4.106773443E-004  1.699441973E+002  9.017508409E+001  6.727535287E-003 
 7.900000000E-004  4.392744393E-004  1.710468317E+002  9.129701647E+001  4.079029846E-002 
 8.000000000E-004  4.694744472E-004  1.721470351E+002  9.241765132E+001  4.079029846E-002 
 8.100000000E-004  5.013461322E-004  1.732447919E+002  9.353697270E+001  4.079029846E-002 
 8.200000000E-004  5.349603333E-004  1.743400866E+002  9.465496472E+001  4.079029846E-002 
 8.300000000E-004  5.703900015E-004  1.754329034E+002  9.577161148E+001  4.079029846E-002 
 8.400000000E-004  6.077102365E-004  1.765232270E+002  9.688689712E+001  4.079029846E-002 
 8.500000000E-004  6.469983246E-004  1.776110418E+002  9.800080577E+001  4.079029846E-002 
 8.600000000E-004  6.883337757E-004  1.786963324E+002  9.911332162E+001  4.079029846E-002 
 8.700000000E-004  7.317983617E-004  1.797790833E+002  1.002244289E+002  4.079029846E-002 
 8.800000000E-004  7.774761539E-004  1.808592791E+002  1.013341117E+002  4.079029846E-002 
 8.900000000E-004  8.254535614E-004  1.819369046E+002  1.024423543E+002  4.079029846E-002 
 9.000000000E-004  8.758193690E-004  1.830119442E+002  1.035491410E+002  4.079029846E-002 
 9.100000000E-004  9.286647764E-004  1.840843829E+002  1.046544561E+002  4.079029846E-002 
 9.200000000E-004  9.840834361E-004  1.851542054E+002  1.057582837E+002  4.079029846E-002 
 9.300000000E-004  1.042171493E-003  1.862213964E+002  1.068606083E+002  4.079029846E-002 
 9.400000000E-004  1.103027622E-003  1.872859407E+002  1.079614142E+002  4.079029846E-002 
 9.500000000E-004  1.166753069E-003  1.883478234E+002  1.090606857E+002  4.079029846E-002 
 9.600000000E-004  1.233451690E-003  1.894070292E+002  1.101584073E+002  4.079029846E-002 
 9.700000000E-004  1.303229988E-003  1.904635431E+002  1.112545632E+002  4.079029846E-002 
 9.800000000E-004  1.376197156E-003  1.915173500E+002  1.123491379E+002  4.079029846E-002 
 9.900000000E-004  1.452465114E-003  1.925684351E+002  1.134421160E+002  4.079029846E-002 
 1.000000000E-003  1.532148553E-003  1.936167834E+002  1.145334817E+002  4.079029846E-002 
 1.010000000E-003  1.615364969E-003  1.946623800E+002  1.156232197E+002  4.079029846E-002 
 1.020000000E-003  1.702234710E-003  1.957052099E+002  1.167113144E+002  4.079029846E-002 
 1.030000000E-003  1.792881010E-003  1.967452585E+002  1.177977504E+002  4.079029846E-002 
 1.040000000E-003  1.887430034E-003  1.977825109E+002  1.188825122E+002  4.079029846E-002 
 1.050000000E-003  1.986010917E-003  1.988169523E+002  1.199655845E+002  1.372139561E-001 
 1.060000000E-003  2.088755806E-003  1.998485682E+002  1.210469518E+002  1.372139561E-001 
 1.070000000E-003  2.195799899E-003  2.008773437E+002  1.221265987E+002  1.372139561E-001 
 1.080000000E-003  2.307281486E-003  2.019032643E+002  1.232045099E+002  1.372139561E-001 
 1.090000000E-003  2.423341994E-003  2.029263154E+002  1.242806701E+002  1.372139561E-001 
 1.100000000E-003  2.544126021E-003  2.039464825E+002  1.253550641E+002  1.372139561E-001 
 1.110000000E-003  2.669781386E-003  2.049637511E+002  1.264276764E+002  1.372139561E-001 
 1.120000000E-003  2.800459165E-003  2.059781067E+002  1.274984919E+002  1.372139561E-001 
 1.130000000E-003  2.936313733E-003  2.069895349E+002  1.285674954E+002  1.372139561E-001 
 1.140000000E-003  3.077502807E-003  2.079980213E+002  1.296346717E+002  1.372139561E-001 
 1.150000000E-003  3.224187490E-003  2.090035515E+002  1.307000056E+002  1.372139561E-001 
 1.160000000E-003  3.376532306E-003  2.100061114E+002  1.317634819E+002  1.372139561E-001 
 1.170000000E-003  3.534705252E-003  2.110056866E+002  1.328250856E+002  1.372139561E-001 
 1.180000000E-003  3.698877829E-003  2.120022630E+002  1.338848016E+002  1.372139561E-001 
 1.190000000E-003  3.869225094E-003  2.129958264E+002  1.349426147E+002  1.372139561E-001 
 1.200000000E-003  4.045925698E-003  2.139863626E+002  1.359985100E+002  1.372139561E-001 
 1.210000000E-003  4.229161925E-003  2.149738575E+002  1.370524725E+002  1.372139561E-001 
 1.220000000E-003  4.419119743E-003  2.159582973E+002  1.381044871E+002  1.372139561E-001 
 1.230000000E-003  4.615988839E-003  2.169396678E+002  1.391545390E+002  1.372139561E-001 
 1.240000000E-003  4.819962663E-003  2.179179551E+002  1.402026132E+002  1.372139561E-001 
 1.250000000E-003  5.031238476E-003  2.188931452E+002  1.412486948E+002  1.372139561E-001 
 1.260000000E-003  5.250017385E-003  2.198652245E+002  1.422927690E+002  1.372139561E-001 
 1.270000000E-003  5.476504391E-003  2.208341790E+002  1.433348208E+002  1.372139561E-001 
 1.280000000E-003  5.710908432E-003  2.217999949E+002  1.443748356E+002  1.372139561E-001 
 1.290000000E-003  5.953442423E-003  2.227626585E+002  1.454127984E+002  1.372139561E-001 
 1.300000000E-003  6.204323299E-003  2.237221562E+002  1.464486946E+002  1.372139561E-001 
 1.310000000E-003  6.463772064E-003  2.246784744E+002  1.474825095E+002  3.456955381E-001 
 1.320000000E-003  6.732013825E-003  2.256315993E+002  1.485142283E+002  3.456955381E-001 
 1.330000000E-003  7.009277843E-003  2.265815175E+002  1.495438364E+002  3.456955381E-001 
 1.340000000E-003  7.295797572E-003  2.275282155E+002  1.505713191E+002  3.456955381E-001 
 1.350000000E-003  7.591810703E-003  2.284716798E+002  1.515966619E+002  3.456955381E-001 
 1.360000000E-003  7.897559209E-003  2.294118970E+002  1.526198502E+002  3.456955381E-001 
 1.370000000E-003  8.213289386E-003  2.303488538E+002  1.536408694E+002  3.456955381E-001 
 1.380000000E-003  8.539251897E-003  2.312825368E+002  1.546597050E+002  3.456955381E-001 
 1.390000000E-003  8.875701816E-003  2.322129328E+002  1.556763426E+002  3.456955381E-001 
 1.400000000E-003  9.222898671E-003  2.331400285E+002  1.566907677E+002  3.456955381E-001 
 1.410000000E-003  9.581106489E-003  2.340638108E+002  1.577029658E+002  3.456955381E-001 
 1.420000000E-003  9.950593835E-003  2.349842665E+002  1.587129226E+002  3.456955381E-001 
 1.430000000E-003  1.033163386E-002  2.359013825E+002  1.597206238E+002  3.456955381E-001 
 1.440000000E-003  1.072450435E-002  2.368151459E+002  1.607260550E+002  3.456955381E-001 
 1.450000000E-003  1.112948774E-002  2.377255436E+002  1.617292019E+002  3.456955381E-001 
 1.460000000E-003  1.154687121E-002  2.386325627E+002  1.627300503E+002  3.456955381E-001 
 1.470000000E-003  1.197694668E-002  2.395361904E+002  1.637285859E+002  3.456955381E-001 
 1.480000000E-003  1.242001087E-002  2.404364136E+002  1.647247946E+002  3.456955381E-001 
 1.490000000E-003  1.287636535E-002  2.413332198E+002  1.657186622E+002  3.456955381E-001 
 1.500000000E-003  1.334631659E-002  2.422265960E+002  1.667101745E+002  3.456955381E-001 
 1.510000000E-003  1.383017597E-002  2.431165297E+002  1.676993175E+002  3.456955381E-001 
 1.520000000E-003  1.432825986E-002  2.440030082E+002  1.686860772E+002  3.456955381E-001 
 1.530000000E-003  1.484088964E-002  2.448860188E+002  1.696704394E+002  3.456955381E-001 
 1.540000000E-003  1.536839177E-002  2.457655491E+002  1.706523903E+002  3.456955381E-001 
 1.550000000E-003  1.591109779E-002  2.466415864E+002  1.716319158E+002  3.456955381E-001 
 1.560000000E-003  1.646934441E-002  2.475141185E+002  1.726090020E+002  3.456955381E-001 
 1.570000000E-003  1.704347353E-002  2.483831329E+002  1.735836351E+002  7.305378870E-001 
 1.580000000E-003  1.763383227E-002  2.492486171E+002  1.745558012E+002  7.305378870E-001 
 1.590000000E-003  1.824077304E-002  2.501105590E+002  1.755254865E+002  7.305378870E-001 
 1.600000000E-003  1.886465357E-002  2.509689463E+002  1.764926771E+002  7.305378870E-001 
 1.610000000E-003  1.950583696E-002  2.518237667E+002  1.774573594E+002  7.305378870E-001 
 1.620000000E-003  2.016469171E-002  2.526750082E+002  1.784195196E+002  7.305378870E-001 
 1.630000000E-003  2.084159178E-002  2.535226586E+002  1.793791441E+002  7.305378870E-001 
 1.640000000E-003  2.153691662E-002  2.543667059E+002  1.803362192E+002  7.305378870E-001 
 1.650000000E-003  2.225105120E-002  2.552071381E+002  1.812907314E+002  7.305378870E-001 
 1.660000000E-003  2.298438611E-002  2.560439432E+002  1.822426670E+002  7.305378870E-001 
 1.670000000E-003  2.373731751E-002  2.568771093E+002  1.831920125E+002  7.305378870E-001 
 1.680000000E-003  2.451024728E-002  2.577066247E+002  1.841387545E+002  7.305378870E-001 
 1.690000000E-003  2.530358297E-002  2.585324775E+002  1.850828794E+002  7.305378870E-001 
 1.700000000E-003  2.611773789E-002  2.593546560E+002  1.860243739E+002  7.305378870E-001 
 1.710000000E-003  2.695313114E-002  2.601731484E+002  1.869632246E+002  7.305378870E-001 
 1.720000000E-003  2.781018767E-002  2.609879433E+002  1.878994182E+002  7.305378870E-001 
 1.730000000E-003  2.868933830E-002  2.617990289E+002  1.888329412E+002  7.305378870E-001 
 1.740000000E-003  2.959101976E-002  2.626063937E+002  1.897637805E+002  7.305378870E-001 
 1.750000000E-003  3.051567476E-002  2.634100264E+002  1.906919229E+002  7.305378870E-001 
 1.760000000E-003  3.146375199E-002  2.642099154E+002  1.916173551E+002  7.305378870E-001 
 1.770000000E-003  3.243570621E-002  2.650060494E+002  1.925400640E+002  7.305378870E-001 
 1.780000000E-003  3.343199826E-002  2.657984171E+002  1.934600365E+002  7.305378870E-001 
 1.790000000E-003  3.445309510E-002  2.665870072E+002  1.943772595E+002  7.305378870E-001 
 1.800000000E-003  3.549946987E-002  2.673718085E+002  1.952917199E+002  7.305378870E-001 
 1.810000000E-003  3.657160192E-002  2.681528098E+002  1.962034049E+002  7.305378870E-001 
 1.820000000E-003  3.766997687E-002  2.689300001E+002  1.971123013E+002  7.305378870E-001 
 1.830000000E-003  3.879508661E-002  2.697033684E+002  1.980183964E+002  1.370239025E+000 
 1.840000000E-003  3.994742938E-002  2.704729035E+002  1.989216771E+002  1.370239025E+000 
 1.850000000E-003  4.112750979E-002  2.712385946E+002  1.998221308E+002  1.370239025E+000 
 1.860000000E-003  4.233583888E-002  2.720004309E+002  2.007197445E+002  1.370239025E+000 
 1.870000000E-003  4.357293415E-002  2.727584014E+002  2.016145056E+002  1.370239025E+000 
 1.880000000E-003  4.483931958E-002  2.735124953E+002  2.025064012E+002  1.370239025E+000 
 1.890000000E-003  4.613552572E-002  2.742627021E+002  2.033954188E+002  1.370239025E+000 
 1.900000000E-003  4.746208967E-002  2.750090110E+002  2.042815457E+002  1.370239025E+000 
 1.910000000E-003  4.881955517E-002  2.757514114E+002  2.051647694E+002  1.370239025E+000 
 1.920000000E-003  5.020847263E-002  2.764898928E+002  2.060450771E+002  1.370239025E+000 
 1.930000000E-003  5.162939913E-002  2.772244446E+002  2.069224565E+002  1.370239025E+000 
 1.940000000E-003  5.308289852E-002  2.779550565E+002  2.077968951E+002  1.370239025E+000 
 1.950000000E-003  5.456954142E-002  2.786817180E+002  2.086683805E+002  1.370239025E+000 
 1.960000000E-003  5.608990526E-002  2.794044188E+002  2.095369001E+002  1.370239025E+000 
 1.970000000E-003  5.764457436E-002  2.801231487E+002  2.104024419E+002  1.370239025E+000 
 1.980000000E-003  5.923413990E-002  2.808378974E+002  2.112649933E+002  1.370239025E+000 
 1.990000000E-003  6.085920002E-002  2.815486548E+002  2.121245422E+002  1.370239025E+000 
 2.000000000E-003  6.252035983E-002  2.822554107E+002  2.129810763E+002  1.370239025E+000 
 2.010000000E-003  6.421823147E-002  2.829581552E+002  2.138345835E+002  1.370239025E+000 
 2.020000000E-003  6.595343410E-002  2.836568782E+002  2.146850516E+002  1.370239025E+000 
 2.030000000E-003  6.772659400E-002  2.843515698E+002  2.155324686E+002  1.370239025E+000 
 2.040000000E-003  6.953834458E-002  2.850422201E+002  2.163768224E+002  1.370239025E+000 
 2.050000000E-003  7.138932640E-002  2.857288194E+002  2.172181010E+002  1.370239025E+000 
 2.060000000E-003  7.328018723E-002  2.864113578E+002  2.180562924E+002  1.370239025E+000 
 2.070000000E-003  7.521158210E-002  2.870898257E+002  2.188913848E+002  1.370239025E+000 
 2.080000000E-003  7.718417329E-002  2.877642134E+002  2.197233662E+002  1.370239025E+000 
 2.090000000E-003  7.919863043E-002  2.884345114E+002  2.205522249E+002  2.356720016E+000 
 2.100000000E-003  8.125563048E-002  2.891007100E+002  2.213779491E+002  2.356720016E+000 
 2.110000000E-003  8.335585781E-002  2.897627999E+002  2.222005269E+002  2.356720016E+000 
 2.120000000E-003  8.550000420E-002  2.904207716E+002  2.230199469E+002  2.356720016E+000 
 2.130000000E-003  8.768876890E-002  2.910746158E+002  2.238361972E+002  2.356720016E+000 
 2.140000000E-003  8.992285866E-002  2.917243232E+002  2.246492663E+002  2.356720016E+000 
 2.150000000E-003  9.220298777E-002  2.923698845E+002  2.254591426E+002  2.356720016E+000 
 2.160000000E-003  9.452987809E-002  2.930112906E+002  2.262658147E+002  2.356720016E+000 
 2.170000000E-003  9.690425909E-002  2.936485324E+002  2.270692710E+002  2.356720016E+000 
 2.180000000E-003  9.932686786E-002  2.942816008E+002  2.278695002E+002  2.356720016E+000 
